Time [s],Voltage [V],Current [A],Cell Temperature [K],Separator Temperature [K]
0.0,4.114702429221932,2.0,298.15,298.15
1.0,4.112924675951415,2.0,298.15,298.15
2.0,4.111247650481944,2.0,298.15,298.15
3.0,4.10967619481624,2.0,298.15,298.15
4.0,4.10820381424173,2.0,298.15,298.15
5.0,4.106822767137229,2.0,298.15,298.15
6.0,4.105524306309163,2.0,298.15,298.15
7.0,4.104300185977182,2.0,298.15,298.15
8.0,4.103142944885174,2.0,298.15,298.15
9.0,4.102045942426087,2.0,298.15,298.15
10.0,4.1010033096587755,2.0,298.15,298.15
11.0,4.100009874065041,2.0,298.15,298.15
12.0,4.0990610818123105,2.0,298.15,298.15
13.0,4.098152917007684,2.0,298.15,298.15
14.0,4.097281832227638,2.0,298.15,298.15
15.0,4.096444690227345,2.0,298.15,298.15
16.0,4.095638710438335,2.0,298.15,298.15
17.0,4.094861422579801,2.0,298.15,298.15
18.0,4.094110626574822,2.0,298.15,298.15
19.0,4.093384357953061,2.0,298.15,298.15
20.0,4.092680858090266,2.0,298.15,298.15
21.0,4.091998548530692,2.0,298.15,298.15
22.0,4.091336008848632,2.0,298.15,298.15
23.0,4.090691957528355,2.0,298.15,298.15
24.0,4.090065233769787,2.0,298.15,298.15
25.0,4.089454785993099,2.0,298.15,298.15
26.0,4.088859659156127,2.0,298.15,298.15
27.0,4.088278983007266,2.0,298.15,298.15
28.0,4.087711962810214,2.0,298.15,298.15
29.0,4.087157870783271,2.0,298.15,298.15
30.0,4.086616039308132,2.0,298.15,298.15
31.0,4.086085854526232,2.0,298.15,298.15
32.0,4.08556674937059,2.0,298.15,298.15
33.0,4.085058199823072,2.0,298.15,298.15
34.0,4.084559723136247,2.0,298.15,298.15
35.0,4.084070871837743,2.0,298.15,298.15
36.0,4.083591230386667,2.0,298.15,298.15
37.0,4.0831204122063,2.0,298.15,298.15
38.0,4.082658057045154,2.0,298.15,298.15
39.0,4.0822038286254045,2.0,298.15,298.15
40.0,4.081757412542963,2.0,298.15,298.15
41.0,4.081318514388743,2.0,298.15,298.15
42.0,4.080886858064381,2.0,298.15,298.15
43.0,4.080462184269594,2.0,298.15,298.15
44.0,4.080044249140629,2.0,298.15,298.15
45.0,4.079632823023112,2.0,298.15,298.15
46.0,4.079227689363373,2.0,298.15,298.15
47.0,4.078828643705412,2.0,298.15,298.15
48.0,4.078435492781775,2.0,298.15,298.15
49.0,4.078048053687956,2.0,298.15,298.15
50.0,4.07766615313168,2.0,298.15,298.15
51.0,4.0772896267489696,2.0,298.15,298.15
52.0,4.07691831778862,2.0,298.15,298.15
53.0,4.076552077764646,2.0,298.15,298.15
54.0,4.076190765663396,2.0,298.15,298.15
55.0,4.075834247193827,2.0,298.15,298.15
56.0,4.075482394349675,2.0,298.15,298.15
57.0,4.075135085007089,2.0,298.15,298.15
58.0,4.074792202554175,2.0,298.15,298.15
59.0,4.07445363554952,2.0,298.15,298.15
60.0,4.074119277407006,2.0,298.15,298.15
61.0,4.07378902610461,2.0,298.15,298.15
62.0,4.0734627839148985,2.0,298.15,298.15
63.0,4.073140457155445,2.0,298.15,298.15
64.0,4.072821955957258,2.0,298.15,298.15
65.0,4.072507194049868,2.0,298.15,298.15
66.0,4.07219623574275,2.0,298.15,298.15
67.0,4.071888844768856,2.0,298.15,298.15
68.0,4.071584945103046,2.0,298.15,298.15
69.0,4.0712844635547905,2.0,298.15,298.15
70.0,4.070987329621178,2.0,298.15,298.15
71.0,4.070693475349384,2.0,298.15,298.15
72.0,4.070402835207987,2.0,298.15,298.15
73.0,4.070115345966529,2.0,298.15,298.15
74.0,4.069830946582378,2.0,298.15,298.15
75.0,4.069549578094864,2.0,298.15,298.15
76.0,4.069271183525486,2.0,298.15,298.15
77.0,4.0689957077844845,2.0,298.15,298.15
78.0,4.06872309758269,2.0,298.15,298.15
79.0,4.06845330134868,2.0,298.15,298.15
80.0,4.068186269150654,2.0,298.15,298.15
81.0,4.067921952622835,2.0,298.15,298.15
82.0,4.067660304896078,2.0,298.15,298.15
83.0,4.067401280532132,2.0,298.15,298.15
84.0,4.067144835461863,2.0,298.15,298.15
85.0,4.066890926926525,2.0,298.15,298.15
86.0,4.066639513422414,2.0,298.15,298.15
87.0,4.066390554648465,2.0,298.15,298.15
88.0,4.0661440114564185,2.0,298.15,298.15
89.0,4.0658998458038305,2.0,298.15,298.15
90.0,4.065658020709375,2.0,298.15,298.15
91.0,4.065418500210387,2.0,298.15,298.15
92.0,4.065181249322732,2.0,298.15,298.15
93.0,4.064946234002431,2.0,298.15,298.15
94.0,4.064713421109414,2.0,298.15,298.15
95.0,4.064482778372886,2.0,298.15,298.15
96.0,4.064254274358391,2.0,298.15,298.15
97.0,4.064027878436596,2.0,298.15,298.15
98.0,4.063803560753353,2.0,298.15,298.15
99.0,4.063581292201274,2.0,298.15,298.15
100.0,4.063361044392612,2.0,298.15,298.15
101.0,4.06314278963343,2.0,298.15,298.15
102.0,4.06292650089886,2.0,298.15,298.15
103.0,4.062712151809516,2.0,298.15,298.15
104.0,4.06249971660899,2.0,298.15,298.15
105.0,4.062289170142344,2.0,298.15,298.15
106.0,4.062080487835473,2.0,298.15,298.15
107.0,4.06187364567545,2.0,298.15,298.15
108.0,4.061668620191616,2.0,298.15,298.15
109.0,4.061465388437644,2.0,298.15,298.15
110.0,4.061263927974173,2.0,298.15,298.15
111.0,4.061064216852289,2.0,298.15,298.15
112.0,4.060866233597656,2.0,298.15,298.15
113.0,4.0606699571952625,2.0,298.15,298.15
114.0,4.0604753670748615,2.0,298.15,298.15
115.0,4.060282443096931,2.0,298.15,298.15
116.0,4.060091165539288,2.0,298.15,298.15
117.0,4.059901515084095,2.0,298.15,298.15
118.0,4.059713472805525,2.0,298.15,298.15
119.0,4.059527020157777,2.0,298.15,298.15
120.0,4.059342138963684,2.0,298.15,298.15
121.0,4.059158811403653,2.0,298.15,298.15
122.0,4.05897702000509,2.0,298.15,298.15
123.0,4.0587967476321705,2.0,298.15,298.15
124.0,4.058617977476034,2.0,298.15,298.15
125.0,4.05844069304534,2.0,298.15,298.15
126.0,4.058264878157198,2.0,298.15,298.15
127.0,4.058090516928304,2.0,298.15,298.15
128.0,4.05791759376662,2.0,298.15,298.15
129.0,4.057746093363105,2.0,298.15,298.15
130.0,4.057576000683921,2.0,298.15,298.15
131.0,4.057407300962844,2.0,298.15,298.15
132.0,4.057239979693944,2.0,298.15,298.15
133.0,4.05707402262455,2.0,298.15,298.15
134.0,4.056909415748442,2.0,298.15,298.15
135.0,4.05674614529923,2.0,298.15,298.15
136.0,4.056584197744032,2.0,298.15,298.15
137.0,4.05642355977738,2.0,298.15,298.15
138.0,4.056264218315197,2.0,298.15,298.15
139.0,4.056106160489143,2.0,298.15,298.15
140.0,4.0559493736410435,2.0,298.15,298.15
141.0,4.055793845317526,2.0,298.15,298.15
142.0,4.055639563264879,2.0,298.15,298.15
143.0,4.055486515423977,2.0,298.15,298.15
144.0,4.055334689925429,2.0,298.15,298.15
145.0,4.055184075084941,2.0,298.15,298.15
146.0,4.055034659398723,2.0,298.15,298.15
147.0,4.054886431539118,2.0,298.15,298.15
148.0,4.054739380350262,2.0,298.15,298.15
149.0,4.0545934948440445,2.0,298.15,298.15
150.0,4.054448764196053,2.0,298.15,298.15
151.0,4.05430517774169,2.0,298.15,298.15
152.0,4.054162724972408,2.0,298.15,298.15
153.0,4.054021395532086,2.0,298.15,298.15
154.0,4.053881179213491,2.0,298.15,298.15
155.0,4.053742065954813,2.0,298.15,298.15
156.0,4.053604045836345,2.0,298.15,298.15
157.0,4.053467109077288,2.0,298.15,298.15
158.0,4.053331246032541,2.0,298.15,298.15
159.0,4.053196447189759,2.0,298.15,298.15
160.0,4.053062703166273,2.0,298.15,298.15
161.0,4.052930004706352,2.0,298.15,298.15
162.0,4.052798342678307,2.0,298.15,298.15
163.0,4.052667708071814,2.0,298.15,298.15
164.0,4.052538091995343,2.0,298.15,298.15
165.0,4.052409485673444,2.0,298.15,298.15
166.0,4.052281880444479,2.0,298.15,298.15
167.0,4.052155267758013,2.0,298.15,298.15
168.0,4.052029639172564,2.0,298.15,298.15
169.0,4.051904986353282,2.0,298.15,298.15
170.0,4.05178130106976,2.0,298.15,298.15
171.0,4.0516585751938194,2.0,298.15,298.15
172.0,4.051536800697449,2.0,298.15,298.15
173.0,4.051415969650713,2.0,298.15,298.15
174.0,4.051296074219822,2.0,298.15,298.15
175.0,4.051177106665171,2.0,298.15,298.15
176.0,4.051059059339375,2.0,298.15,298.15
177.0,4.050941924685537,2.0,298.15,298.15
178.0,4.050825695235401,2.0,298.15,298.15
179.0,4.050710363607622,2.0,298.15,298.15
180.0,4.050595922506057,2.0,298.15,298.15
181.0,4.050482364782395,2.0,298.15,298.15
182.0,4.05036968323806,2.0,298.15,298.15
183.0,4.050257870822981,2.0,298.15,298.15
184.0,4.0501469205658145,2.0,298.15,298.15
185.0,4.050036825572635,2.0,298.15,298.15
186.0,4.049927579006187,2.0,298.15,298.15
187.0,4.049819174117365,2.0,298.15,298.15
188.0,4.049711604236608,2.0,298.15,298.15
189.0,4.049604862766044,2.0,298.15,298.15
190.0,4.049498943178171,2.0,298.15,298.15
191.0,4.049393839014591,2.0,298.15,298.15
192.0,4.0492895438847505,2.0,298.15,298.15
193.0,4.049186051464669,2.0,298.15,298.15
194.0,4.049083355495827,2.0,298.15,298.15
195.0,4.048981449783938,2.0,298.15,298.15
196.0,4.0488803281978205,2.0,298.15,298.15
197.0,4.048779984668285,2.0,298.15,298.15
198.0,4.048680413187109,2.0,298.15,298.15
199.0,4.048581607805876,2.0,298.15,298.15
200.0,4.048483562635038,2.0,298.15,298.15
201.0,4.048386271842791,2.0,298.15,298.15
202.0,4.0482897296541935,2.0,298.15,298.15
203.0,4.048193930350186,2.0,298.15,298.15
204.0,4.048098868266582,2.0,298.15,298.15
205.0,4.048004537793186,2.0,298.15,298.15
206.0,4.047910933372939,2.0,298.15,298.15
207.0,4.047818049500909,2.0,298.15,298.15
208.0,4.047725880723622,2.0,298.15,298.15
209.0,4.047634421638016,2.0,298.15,298.15
210.0,4.047543666890752,2.0,298.15,298.15
211.0,4.0474536111773975,2.0,298.15,298.15
212.0,4.047364249241558,2.0,298.15,298.15
213.0,4.04727557587418,2.0,298.15,298.15
214.0,4.047187585912826,2.0,298.15,298.15
215.0,4.047100274240815,2.0,298.15,298.15
216.0,4.047013635786634,2.0,298.15,298.15
217.0,4.046927665523166,2.0,298.15,298.15
218.0,4.0468423584669715,2.0,298.15,298.15
219.0,4.046757709677709,2.0,298.15,298.15
220.0,4.046673714257368,2.0,298.15,298.15
221.0,4.046590367349695,2.0,298.15,298.15
222.0,4.046507664139552,2.0,298.15,298.15
223.0,4.046425599852209,2.0,298.15,298.15
224.0,4.046344169752884,2.0,298.15,298.15
225.0,4.046263369146025,2.0,298.15,298.15
226.0,4.046183193374788,2.0,298.15,298.15
227.0,4.046103637820448,2.0,298.15,298.15
228.0,4.046024697901842,2.0,298.15,298.15
229.0,4.045946369074811,2.0,298.15,298.15
230.0,4.045868646831723,2.0,298.15,298.15
231.0,4.045791526700815,2.0,298.15,298.15
232.0,4.045715004245809,2.0,298.15,298.15
233.0,4.045639075065412,2.0,298.15,298.15
234.0,4.045563734792666,2.0,298.15,298.15
235.0,4.045488979094614,2.0,298.15,298.15
236.0,4.045414803671845,2.0,298.15,298.15
237.0,4.045341204257841,2.0,298.15,298.15
238.0,4.045268176618728,2.0,298.15,298.15
239.0,4.045195716552678,2.0,298.15,298.15
240.0,4.045123819889606,2.0,298.15,298.15
241.0,4.045052482490616,2.0,298.15,298.15
242.0,4.04498170024761,2.0,298.15,298.15
243.0,4.044911469082963,2.0,298.15,298.15
244.0,4.044841784948985,2.0,298.15,298.15
245.0,4.044772643827629,2.0,298.15,298.15
246.0,4.044704041730007,2.0,298.15,298.15
247.0,4.044635974696109,2.0,298.15,298.15
248.0,4.0445684387943475,2.0,298.15,298.15
249.0,4.044501430121194,2.0,298.15,298.15
250.0,4.0444349448008765,2.0,298.15,298.15
251.0,4.044368978984989,2.0,298.15,298.15
252.0,4.044303528852104,2.0,298.15,298.15
253.0,4.04423859060749,2.0,298.15,298.15
254.0,4.044174160482722,2.0,298.15,298.15
255.0,4.044110234735451,2.0,298.15,298.15
256.0,4.044046809648933,2.0,298.15,298.15
257.0,4.043983881531826,2.0,298.15,298.15
258.0,4.04392144671783,2.0,298.15,298.15
259.0,4.043859501565411,2.0,298.15,298.15
260.0,4.043798042457446,2.0,298.15,298.15
261.0,4.0437370658010305,2.0,298.15,298.15
262.0,4.043676568027029,2.0,298.15,298.15
263.0,4.043616545589943,2.0,298.15,298.15
264.0,4.043556994967552,2.0,298.15,298.15
265.0,4.043497912660676,2.0,298.15,298.15
266.0,4.043439295192838,2.0,298.15,298.15
267.0,4.04338113911011,2.0,298.15,298.15
268.0,4.043323440980721,2.0,298.15,298.15
269.0,4.043266197394933,2.0,298.15,298.15
270.0,4.043209404964687,2.0,298.15,298.15
271.0,4.043153060323429,2.0,298.15,298.15
272.0,4.043097160125756,2.0,298.15,298.15
273.0,4.043041701047366,2.0,298.15,298.15
274.0,4.0429866797846055,2.0,298.15,298.15
275.0,4.042932093054416,2.0,298.15,298.15
276.0,4.042877937594008,2.0,298.15,298.15
277.0,4.042824210160658,2.0,298.15,298.15
278.0,4.042770907531523,2.0,298.15,298.15
279.0,4.042718026503382,2.0,298.15,298.15
280.0,4.042665563892432,2.0,298.15,298.15
281.0,4.042613516534133,2.0,298.15,298.15
282.0,4.042561881282925,2.0,298.15,298.15
283.0,4.042510655012037,2.0,298.15,298.15
284.0,4.04245983461339,2.0,298.15,298.15
285.0,4.042409416997251,2.0,298.15,298.15
286.0,4.042359399092157,2.0,298.15,298.15
287.0,4.042309777844686,2.0,298.15,298.15
288.0,4.042260550219258,2.0,298.15,298.15
289.0,4.042211713197971,2.0,298.15,298.15
290.0,4.042163263780442,2.0,298.15,298.15
291.0,4.042115198983592,2.0,298.15,298.15
292.0,4.042067515841444,2.0,298.15,298.15
293.0,4.0420202114050685,2.0,298.15,298.15
294.0,4.041973282742313,2.0,298.15,298.15
295.0,4.041926726937652,2.0,298.15,298.15
296.0,4.041880541092079,2.0,298.15,298.15
297.0,4.041834722322838,2.0,298.15,298.15
298.0,4.041789267763404,2.0,298.15,298.15
299.0,4.041744174563245,2.0,298.15,298.15
300.0,4.0416994398876716,2.0,298.15,298.15
301.0,4.041655060917673,2.0,298.15,298.15
302.0,4.041611034849859,2.0,298.15,298.15
303.0,4.041567358896192,2.0,298.15,298.15
304.0,4.041524030283943,2.0,298.15,298.15
305.0,4.041481046255507,2.0,298.15,298.15
306.0,4.041438404068238,2.0,298.15,298.15
307.0,4.041396100994357,2.0,298.15,298.15
308.0,4.041354134320816,2.0,298.15,298.15
309.0,4.041312501349136,2.0,298.15,298.15
310.0,4.0412711993953305,2.0,298.15,298.15
311.0,4.041230225789683,2.0,298.15,298.15
312.0,4.041189577876704,2.0,298.15,298.15
313.0,4.041149253015005,2.0,298.15,298.15
314.0,4.041109248577123,2.0,298.15,298.15
315.0,4.041069561949401,2.0,298.15,298.15
316.0,4.041030190531988,2.0,298.15,298.15
317.0,4.040991131738492,2.0,298.15,298.15
318.0,4.040952382996136,2.0,298.15,298.15
319.0,4.040913941745438,2.0,298.15,298.15
320.0,4.04087580544019,2.0,298.15,298.15
321.0,4.040837971547301,2.0,298.15,298.15
322.0,4.040800437546776,2.0,298.15,298.15
323.0,4.040763200931483,2.0,298.15,298.15
324.0,4.040726259207142,2.0,298.15,298.15
325.0,4.040689609892201,2.0,298.15,298.15
326.0,4.040653250517729,2.0,298.15,298.15
327.0,4.0406171786272935,2.0,298.15,298.15
328.0,4.040581391776878,2.0,298.15,298.15
329.0,4.040545887534762,2.0,298.15,298.15
330.0,4.0405106634815455,2.0,298.15,298.15
331.0,4.040475717209825,2.0,298.15,298.15
332.0,4.0404410463242755,2.0,298.15,298.15
333.0,4.040406648441575,2.0,298.15,298.15
334.0,4.0403725211901556,2.0,298.15,298.15
335.0,4.040338662210273,2.0,298.15,298.15
336.0,4.040305069153807,2.0,298.15,298.15
337.0,4.040271739684262,2.0,298.15,298.15
338.0,4.040238671476583,2.0,298.15,298.15
339.0,4.040205862217201,2.0,298.15,298.15
340.0,4.040173309603798,2.0,298.15,298.15
341.0,4.040141011345349,2.0,298.15,298.15
342.0,4.0401089651619655,2.0,298.15,298.15
343.0,4.040077168784849,2.0,298.15,298.15
344.0,4.040045619956217,2.0,298.15,298.15
345.0,4.040014316429192,2.0,298.15,298.15
346.0,4.039983255967746,2.0,298.15,298.15
347.0,4.039952436346633,2.0,298.15,298.15
348.0,4.039921855351302,2.0,298.15,298.15
349.0,4.039891510777806,2.0,298.15,298.15
350.0,4.039861400432758,2.0,298.15,298.15
351.0,4.039831522133271,2.0,298.15,298.15
352.0,4.039801873706799,2.0,298.15,298.15
353.0,4.039772452991227,2.0,298.15,298.15
354.0,4.03974325783462,2.0,298.15,298.15
355.0,4.039714286095293,2.0,298.15,298.15
356.0,4.039685535641655,2.0,298.15,298.15
357.0,4.039657004352184,2.0,298.15,298.15
358.0,4.039628690115405,2.0,298.15,298.15
359.0,4.039600590829726,2.0,298.15,298.15
360.0,4.0395727044034455,2.0,298.15,298.15
361.0,4.039545028754645,2.0,298.15,298.15
362.0,4.039517561811199,2.0,298.15,298.15
363.0,4.0394903015106065,2.0,298.15,298.15
364.0,4.039463245800024,2.0,298.15,298.15
365.0,4.039436392636174,2.0,298.15,298.15
366.0,4.039409739985262,2.0,298.15,298.15
367.0,4.039383285822955,2.0,298.15,298.15
368.0,4.039357028134303,2.0,298.15,298.15
369.0,4.039330964913676,2.0,298.15,298.15
370.0,4.039305094164761,2.0,298.15,298.15
371.0,4.0392794139003785,2.0,298.15,298.15
372.0,4.039253922142611,2.0,298.15,298.15
373.0,4.039228616922556,2.0,298.15,298.15
374.0,4.039203496280463,2.0,298.15,298.15
375.0,4.039178558265517,2.0,298.15,298.15
376.0,4.03915380093591,2.0,298.15,298.15
377.0,4.03912922235865,2.0,298.15,298.15
378.0,4.039104820609687,2.0,298.15,298.15
379.0,4.039080593773727,2.0,298.15,298.15
380.0,4.039056539944227,2.0,298.15,298.15
381.0,4.039032657223336,2.0,298.15,298.15
382.0,4.0390089437218775,2.0,298.15,298.15
383.0,4.038985397559283,2.0,298.15,298.15
384.0,4.038962016863519,2.0,298.15,298.15
385.0,4.038938799771077,2.0,298.15,298.15
386.0,4.03891574442691,2.0,298.15,298.15
387.0,4.038892848984384,2.0,298.15,298.15
388.0,4.038870111605277,2.0,298.15,298.15
389.0,4.038847530459648,2.0,298.15,298.15
390.0,4.038825103725851,2.0,298.15,298.15
391.0,4.038802829590494,2.0,298.15,298.15
392.0,4.038780706248406,2.0,298.15,298.15
393.0,4.038758731902554,2.0,298.15,298.15
394.0,4.038736904764009,2.0,298.15,298.15
395.0,4.038715223051927,2.0,298.15,298.15
396.0,4.038693684993496,2.0,298.15,298.15
397.0,4.038672288823917,2.0,298.15,298.15
398.0,4.038651032786302,2.0,298.15,298.15
399.0,4.038629915131715,2.0,298.15,298.15
400.0,4.038608934119053,2.0,298.15,298.15
401.0,4.038588088015107,2.0,298.15,298.15
402.0,4.038567375094421,2.0,298.15,298.15
403.0,4.038546793639308,2.0,298.15,298.15
404.0,4.0385263419398045,2.0,298.15,298.15
405.0,4.038506018293632,2.0,298.15,298.15
406.0,4.038485821006174,2.0,298.15,298.15
407.0,4.038465748390388,2.0,298.15,298.15
408.0,4.038445798766879,2.0,298.15,298.15
409.0,4.038425970463694,2.0,298.15,298.15
410.0,4.038406261816466,2.0,298.15,298.15
411.0,4.038386671168286,2.0,298.15,298.15
412.0,4.038367196869647,2.0,298.15,298.15
413.0,4.03834783727847,2.0,298.15,298.15
414.0,4.038328590760079,2.0,298.15,298.15
415.0,4.038309455687056,2.0,298.15,298.15
416.0,4.038290430439357,2.0,298.15,298.15
417.0,4.038271513404187,2.0,298.15,298.15
418.0,4.038252702975963,2.0,298.15,298.15
419.0,4.038233997556344,2.0,298.15,298.15
420.0,4.038215395554183,2.0,298.15,298.15
421.0,4.038196895385421,2.0,298.15,298.15
422.0,4.038178495473153,2.0,298.15,298.15
423.0,4.038160194247518,2.0,298.15,298.15
424.0,4.038141990145783,2.0,298.15,298.15
425.0,4.038123881612161,2.0,298.15,298.15
426.0,4.038105867097901,2.0,298.15,298.15
427.0,4.038087945061198,2.0,298.15,298.15
428.0,4.038070113967206,2.0,298.15,298.15
429.0,4.03805237228601,2.0,298.15,298.15
430.0,4.038034718498502,2.0,298.15,298.15
431.0,4.038017151090468,2.0,298.15,298.15
432.0,4.037999668554522,2.0,298.15,298.15
433.0,4.0379822693900485,2.0,298.15,298.15
434.0,4.037964952103189,2.0,298.15,298.15
435.0,4.037947715206853,2.0,298.15,298.15
436.0,4.037930557220644,2.0,298.15,298.15
437.0,4.037913476670869,2.0,298.15,298.15
438.0,4.037896472090475,2.0,298.15,298.15
439.0,4.037879542019076,2.0,298.15,298.15
440.0,4.037862685002859,2.0,298.15,298.15
441.0,4.0378458995946085,2.0,298.15,298.15
442.0,4.037829184353686,2.0,298.15,298.15
443.0,4.037812537845958,2.0,298.15,298.15
444.0,4.037795958643797,2.0,298.15,298.15
445.0,4.03777944532606,2.0,298.15,298.15
446.0,4.0377629964781026,2.0,298.15,298.15
447.0,4.0377466106916735,2.0,298.15,298.15
448.0,4.037730286564945,2.0,298.15,298.15
449.0,4.037714022702446,2.0,298.15,298.15
450.0,4.037697817715142,2.0,298.15,298.15
451.0,4.037681670220243,2.0,298.15,298.15
452.0,4.037665578841342,2.0,298.15,298.15
453.0,4.037649542208329,2.0,298.15,298.15
454.0,4.0376335589573005,2.0,298.15,298.15
455.0,4.037617627730691,2.0,298.15,298.15
456.0,4.037601747177061,2.0,298.15,298.15
457.0,4.037585915951283,2.0,298.15,298.15
458.0,4.0375701327142846,2.0,298.15,298.15
459.0,4.03755439613328,2.0,298.15,298.15
460.0,4.037538704881539,2.0,298.15,298.15
461.0,4.037523057638474,2.0,298.15,298.15
462.0,4.037507453089587,2.0,298.15,298.15
463.0,4.037491889926448,2.0,298.15,298.15
464.0,4.037476366846723,2.0,298.15,298.15
465.0,4.037460882554021,2.0,298.15,298.15
466.0,4.037445435758043,2.0,298.15,298.15
467.0,4.037430025174475,2.0,298.15,298.15
468.0,4.0374146495249095,2.0,298.15,298.15
469.0,4.037399307536954,2.0,298.15,298.15
470.0,4.037383997944139,2.0,298.15,298.15
471.0,4.037368719485855,2.0,298.15,298.15
472.0,4.037353470907456,2.0,298.15,298.15
473.0,4.037338250960108,2.0,298.15,298.15
474.0,4.037323058400853,2.0,298.15,298.15
475.0,4.037307891992551,2.0,298.15,298.15
